x,density,k
0,0.024691181272520044,1
0.05,0.02408155383477714,1
0.1,0.023486978152102052,1
0.15000000000000002,0.02290708259533802,1
0.2,0.022341504710884877,1
0.25,0.02178989099415371,1
0.30000000000000004,0.021251896668615013,1
0.35000000000000003,0.020727185470302122,1
0.4,0.0202154294376353,1
0.45,0.01971630870643505,1
0.5,0.01922951130999662,1
0.55,0.01875473298410063,1
0.6000000000000001,0.018291676976838055,1
0.65,0.017840053863130603,1
0.7000000000000001,0.017399581363830623,1
0.75,0.016969984169287463,1
0.8,0.016550993767269952,1
0.8500000000000001,0.01614234827513754,1
0.9,0.015743792276155102,1
0.9500000000000001,0.015355076659849174,1
1,0.014975958466305802,1
1.05,0.014606200734312676,1
1.1,0.014245572353250663,1
1.1500000000000001,0.013893847918642155,1
1.2000000000000002,0.013550807591265911,1
1.25,0.013216236959750419,1
1.3,0.01288992690655978,1
1.35,0.012571673477288457,1
1.4000000000000001,0.012261277753183128,1
1.4500000000000002,0.011958545726811988,1
1.5,0.011663288180803795,1
1.55,0.01137532056958084,1
1.6,0.011094462904011972,1
1.6500000000000001,0.010820539638913516,1
1.7000000000000002,0.010553379563327829,1
1.75,0.010292815693510869,1
1.8,0.010038685168561929,1
1.85,0.009790829148630262,1
1.9000000000000001,0.009549092715635015,1
1.9500000000000002,0.009313324776436378,1
2,0.009083377968397456,1
2.0500000000000003,0.008859108567277818,1
2.1,0.008640376397401176,1
2.15,0.008427044744041025,1
2.2,0.008218980267969474,1
2.25,0.00801605292211591,1
2.3000000000000003,0.007818135870283327,1
2.35,0.007625105407871585,1
2.4000000000000004,0.007436840884557996,1
2.45,0.007253224628886968,1
2.5,0.007074141874721485,1
2.5500000000000003,0.006899480689510556,1
2.6,0.0067291319043277205,1
2.6500000000000004,0.006562989045636915,1
2.7,0.006400948268743052,1
2.75,0.006242908292885694,1
2.8000000000000003,0.006088770337935294,1
2.85,0.0059384380626523936,1
2.9000000000000004,0.005791817504471208,1
2.95,0.005648817020769971,1
3,0.005509347231591309,1
3.0500000000000003,0.005373320963776857,1
3.1,0.0052406531964812025,1
3.1500000000000004,0.005111261008031082,1
3.2,0.004985063524096642,1
3.25,0.004861981867142346,1
3.3000000000000003,0.004741939107125949,1
3.35,0.0046248602134147205,1
3.4000000000000004,0.004510672007888846,1
3.45,0.004399303119202734,1
3.5,0.004290683938175588,1
3.5500000000000003,0.004184746574283412,1
3.6,0.004081424813225222,1
3.6500000000000004,0.003980654075536945,1
3.7,0.0038823713762271618,1
3.75,0.0037865152854094303,1
3.8000000000000003,0.003693025889906608,1
3.85,0.0036018447558031686,1
3.9000000000000004,0.0035129148919220993,1
3.95,0.003426180714203563,1
4,0.0033415880109630477,1
4.05,0.003259083909007301,1
4.1000000000000005,0.003178616840586864,1
4.15,0.003100136511164552,1
4.2,0.0030235938679797213,1
4.25,0.0029489410693887084,1
4.3,0.0028761314549622385,1
4.3500000000000005,0.0028051195163211404,1
4.4,0.002735860868692131,1
4.45,0.00266831222316588,1
4.5,0.0026024313596400396,1
4.55,0.002538177100430301,1
4.6000000000000005,0.0024755092845330047,1
4.65,0.002414388742523206,1
4.7,0.002354777272072505,1
4.75,0.002296637614071352,1
4.800000000000001,0.0022399334293408896,1
4.8500000000000005,0.0021846292759197844,1
4.9,0.0021306905869118453,1
4.95,0.0020780836488805887,1
5,0.0020267755807772438,1
5.050000000000001,0.0019767343133890256,1
5.1000000000000005,0.0019279285692948372,1
5.15,0.0018803278433158575,1
5.2,0.0018339023834488134,1
5.25,0.0017886231722700119,1
5.300000000000001,0.0017444619087985023,1
5.3500000000000005,0.0017013909908070446,1
5.4,0.0016593834975698165,1
5.45,0.001618413173036085,1
5.5,0.0015784544094193187,1
5.550000000000001,0.0015394822311914891,1
5.6000000000000005,0.0015014722794725527,1
5.65,0.0014644007968053555,1
5.7,0.0014282446123064516,1
5.75,0.0013929811271835458,1
5.800000000000001,0.001358588300610511,1
5.8500000000000005,0.0013250446359511596,1
5.9,0.0012923291673231395,1
5.95,0.00126042144649358,1
6,0.0012293015300982775,1
6.050000000000001,0.0011989499671764452,1
6.1000000000000005,0.0011693477870132311,1
6.15,0.0011404764872824,1
6.2,0.0011123180224817796,1
6.25,0.0010848547926542336,1
6.300000000000001,0.0010580696323871154,1
6.3500000000000005,0.0010319458000833278,1
6.4,0.001006466967497278,1
6.45,9.81617209529193e-4,1
6.5,9.573809942714145e-4,1
6.550000000000001,9.337431733004507e-4,1
6.6000000000000005,9.106889722087188e-4,1
6.65,8.882039813700584e-4,1
6.7,8.662741469332466e-4,1
6.75,8.448857620378836e-4,1
6.800000000000001,8.240254582471588e-4,1
6.8500000000000005,8.03680197192143e-4,1
6.9,7.838372624223822e-4,1
6.95,7.644842514577027e-4,1
7,7.456090680362579e-4,1
7.050000000000001,7.271999145539695e-4,1
7.1000000000000005,7.092452846906431e-4,1
7.15,6.91733956218141e-4,1
7.2,6.746549839861257e-4,1
7.25,6.579976930809844e-4,1
7.300000000000001,6.417516721536605e-4,1
7.3500000000000005,6.259067669122221e-4,1
7.4,6.104530737750975e-4,1
7.45,5.953809336810157e-4,1
7.5,5.80680926051778e-4,1
7.550000000000001,5.663438629040902e-4,1
7.6000000000000005,5.523607831067743e-4,1
7.65,5.38722946779769e-4,1
7.7,5.254218298314208e-4,1
7.75,5.124491186306486e-4,1
7.800000000000001,4.997967048106543e-4,1
7.8500000000000005,4.8745668020092986e-4,1
7.9,4.75421331884392e-4,1
7.95,4.6368313737655913e-4,1
8,4.522347599237532e-4,1
8.05,4.4106904391738973e-4,1
8.1,4.3017901042149043e-4,1
8.15,4.1955785281061887e-4,1
8.200000000000001,4.091989325155207e-4,1
8.25,3.9909577487380035e-4,1
8.3,3.892420650830454e-4,1
8.35,3.7963164425387167e-4,1
8.4,3.7025850556041476e-4,1
8.450000000000001,3.6111679048586993e-4,1
8.5,3.522007851607278e-4,1
8.55,3.4350491679141905e-4,1
8.6,3.3502375017713877e-4,1
8.65,3.267519843126672e-4,1
8.700000000000001,3.186844490750705e-4,1
8.75,3.1081610199220483e-4,1
8.8,3.031420250910064e-4,1
8.85,2.956574218236003e-4,1
8.9,2.883576140692991e-4,1
8.950000000000001,2.812380392106279e-4,1
9,2.7429424728153847e-4,1
9.05,2.675218981860349e-4,1
9.1,2.609167589854744e-4,1
9.15,2.544747012528406e-4,1
9.200000000000001,2.4819169849234413e-4,1
9.25,2.4206382362273074e-4,1
9.3,2.3608724652272729e-4,1
9.35,2.3025823163709257e-4,1
9.4,2.245731356417721e-4,1
9.450000000000001,2.190284051667035e-4,1
9.5,2.136205745748437e-4,1
9.55,2.0834626379603264e-4,1
9.600000000000001,2.032021762143403e-4,1
9.65,1.9818509660757413e-4,1
9.700000000000001,1.932918891376596e-4,1
9.75,1.8851949539064116e-4,1
9.8,1.8386493246507182e-4,1
9.850000000000001,1.7932529110760445e-4,1
9.9,1.7489773389461294e-4,1
9.950000000000001,1.7057949345870962e-4,1
10,1.6636787075905172e-4,1
10.05,1.622602333943517e-4,1
10.100000000000001,1.5825401395754183e-4,1
10.15,1.5434670843106075e-4,1
10.200000000000001,1.505358746217605e-4,1
10.25,1.4681913063445743e-4,1
10.3,1.431941533831689e-4,1
10.350000000000001,1.3965867713911e-4,1
10.4,1.3621049211453876e-4,1
10.450000000000001,1.3284744308156665e-4,1
10.5,1.2956742802507177e-4,1
10.55,1.2636839682887002e-4,1
10.600000000000001,1.232483499943266e-4,1
10.65,1.202053373906039e-4,1
10.700000000000001,1.1723745703576591e-4,1
10.75,1.1434285390797833e-4,1
10.8,1.1151971878605879e-4,1
10.850000000000001,1.0876628711865537e-4,1
10.9,1.060808379213442e-4,1
10.950000000000001,1.0346169270095799e-4,1
11,1.0090721440647376e-4,1
11.05,9.841580640580201e-5,1
11.100000000000001,9.598591148784014e-5,1
11.15,9.361601088916474e-5,1
11.200000000000001,9.130462334475467e-5,1
11.25,8.905030416215278e-5,1
11.3,8.685164431848546e-5,1
11.350000000000001,8.470726957977807e-5,1
11.4,8.261583964201364e-5,1
11.450000000000001,8.057604729339913e-5,1
11.5,7.858661759731592e-5,1
11.55,7.664630709544239e-5,1
11.600000000000001,7.475390303055247e-5,1
11.65,7.290822258850267e-5,1
11.700000000000001,7.11081121589346e-5,1
11.75,6.935244661423137e-5,1
11.8,6.764012860627561e-5,1
11.850000000000001,6.597008788057174e-5,1
11.9,6.434128060730184e-5,1
11.950000000000001,6.275268872889779e-5,1
12,6.120331932372269e-5,1
12.05,5.9692203985461915e-5,1
12.100000000000001,5.8218398217838123e-5,1
12.15,5.6780980844270166e-5,1
12.200000000000001,5.537905343210756e-5,1
12.25,5.401173973108119e-5,1
12.3,5.267818512561797e-5,1
12.350000000000001,5.137755610067867e-5,1
12.4,5.0109039720783666e-05,1
12.450000000000001,4.8871843121901735e-5,1
12.5,4.7665193015884476e-5,1
12.55,4.648833520713577e-5,1
12.600000000000001,4.534053412121521e-5,1
12.65,4.422107234508004e-5,1
12.700000000000001,4.312925017867854e-5,1
12.75,4.206438519761494e-5,1
12.8,4.102581182661171e-5,1
12.850000000000001,4.001288092350358e-5,1
12.9,3.902495937350245e-5,1
12.950000000000001,3.806142969347992e-5,1
13,3.7121689646020486e-5,1
13.05,3.6205151863003296e-5,1
13.100000000000001,3.531124347847816e-5,1
13.15,3.4439405770605586e-5,1
13.200000000000001,3.358909381243738e-5,1
13.25,3.2759776131319725e-5,1
13.3,3.1950934376705305e-5,1
13.350000000000001,3.1162062996167464e-5,1
13.4,3.039266891941347e-5,1
13.450000000000001,2.9642271250099383e-5,1
13.5,2.891040096525442e-5,1
13.55,2.8196600622126103e-5,1
13.600000000000001,2.750042407226383e-5,1
13.65,2.682143618266149e-5,1
13.700000000000001,2.6159212563785104e-5,1
13.75,2.551333930431572e-5,1
13.8,2.488341271244116e-5,1
13.850000000000001,2.426903906353567e-5,1
13.9,2.366983435406916e-5,1
13.950000000000001,2.308542406159239e-5,1
14,2.251544291064844e-5,1
14.05,2.195953464446347e-5,1
14.100000000000001,2.1417351802274783e-5,1
14.15,2.0888555502156478e-5,1
14.200000000000001,2.0372815229207173e-5,1
14.25,1.9869808628967536e-5,1
14.3,1.9379221305938126e-5,1
14.350000000000001,1.8900746627072097e-5,1
14.4,1.84340855301195e-5,1
14.450000000000001,1.7978946336703603e-5,1
14.5,1.7535044570012517e-5,1
14.55,1.7102102776991795e-5,1
14.600000000000001,1.6679850354927363e-5,1
14.65,1.626802338230997e-5,1
14.700000000000001,1.586636445387559e-5,1
14.75,1.5474622519718874e-5,1
14.8,1.5092552728378665e-5,1
14.850000000000001,1.4719916273797964e-5,1
14.9,1.4356480246062322e-5,1
14.950000000000001,1.4002017485823532e-5,1
15,1.3656306442317735e-5,1
15.05,1.3319131034888856e-5,1
15.100000000000001,1.2990280517931281e-5,1
15.15,1.2669549349166929e-5,1
15.200000000000001,1.2356737061174611e-5,1
15.25,1.2051648136091455e-5,1
15.3,1.1754091883407773e-5,1
15.350000000000001,1.146388232077937e-5,1
15.4,1.118083805778249e-5,1
15.450000000000001,1.0904782182538871e-5,1
15.5,1.0635542151140122e-5,1
15.55,1.0372949679802092e-5,1
15.600000000000001,1.0116840639682098e-5,1
15.65,9.867054954293012e-6,1
15.700000000000001,9.623436499450238e-6,1
15.75,9.385833005689062e-6,1
15.8,9.154095963091217e-6,1
15.850000000000001,8.928080528461408e-6,1
15.9,8.70764543479557e-6,1
15.950000000000001,8.492652902984377e-6,1
16,8.28296855569686e-6,1
16.05,8.07846133339015e-6,1
16.1,7.879003412393029e-6,1
16.150000000000002,7.684470125011975e-6,1
16.2,7.4947398816097914e-6,1
16.25,7.30969409460808e-6,1
16.3,7.129217104366227e-6,1
16.35,6.953196106890306e-6,1
16.400000000000002,6.781521083326927e-6,1
16.45,6.6140847311978784e-6,1
16.5,6.450782397332539e-6,1
16.55,6.291512012456313e-6,1
16.6,6.136174027393962e-6,1
16.650000000000002,5.9846713508481435e-6,1
16.7,5.836909288714193e-6,1
16.75,5.692795484893196e-6,1
16.8,5.5522398635664705e-6,1
16.85,5.415154572895214e-6,1
16.900000000000002,5.281453930110253e-6,1
16.95,5.15105436795753e-6,1
17,5.0238743824658155e-6,1
17.05,4.899834482004126e-6,1
17.1,4.778857137596834e-6,1
17.150000000000002,4.6608667344655365e-6,1
17.2,4.545789524767371e-6,1
17.25,4.433553581500179e-6,1
17.3,4.324088753545837e-6,1
17.35,4.2173266218234915e-6,1
17.400000000000002,4.113200456525414e-6,1
17.45,4.011645175408704e-6,1
17.5,3.912597303116748e-6,1
17.55,3.815994931505085e-6,1
17.6,3.721777680946787e-6,1
17.650000000000002,3.6298866625932215e-6,1
17.7,3.5402644415666183e-6,1
17.75,3.452855001061371e-6,1
17.8,3.3676037073317533e-6,1
17.85,3.2844572755440177e-6,1
17.900000000000002,3.203363736471652e-6,1
17.95,3.124272404012923e-6,1
18,3.0471338435103904e-6,1
18.05,2.9718998408526726e-6,1
18.1,2.8985233723390346e-6,1
18.150000000000002,2.826958575288049e-6,1
18.2,2.7571607193719317e-6,1
18.25,2.6890861786586124e-6,1
18.3,2.622692404344136e-6,1
18.35,2.5579378981582543e-6,1
18.400000000000002,2.4947821864266643e-6,1
18.45,2.433185794773645e-6,1
18.5,2.3731102234492715e-6,1
18.55,2.314517923265845e-6,1
18.6,2.2573722721284093e-6,1
18.650000000000002,2.201637552144756e-6,1
18.7,2.1472789273005786e-6,1
18.75,2.094262421685819e-6,1
18.8,2.0425548982586383e-6,1
18.85,1.9921240381336717e-6,1
18.900000000000002,1.9429383203816774e-6,1
18.95,1.8949670023279333e-6,1
19,1.8481801003370492e-6,1
19.05,1.8025483710722419e-6,1
19.1,1.758043293217282e-6,1
19.150000000000002,1.7146370496497466e-6,1
19.200000000000003,1.6723025100544139e-6,1
19.25,1.6310132139659326e-6,1
19.3,1.5907433542301613e-6,1
19.35,1.551467760873873e-6,1
19.400000000000002,1.5131618853726906e-6,1
19.450000000000003,1.4758017853074644e-6,1
19.5,1.4393641093994816e-6,1
19.55,1.4038260829151473e-6,1
19.6,1.3691654934310507e-6,1
19.650000000000002,1.335360676950466e-6,1
19.700000000000003,1.3023905043626534e-6,1
19.75,1.270234368236477e-6,1
19.8,1.2388721699400828e-6,1
19.85,1.2082843070786113e-6,1
19.900000000000002,1.1784516612420548e-6,1
19.950000000000003,1.1493555860556306e-6,1
20,1.1209778955251915e-6,1
0,0,2
0.05,6.099015959120972e-4,2
0.1,0.001189686143709934,2
0.15000000000000002,0.0017404690322445934,2
0.2,0.0022633289316353485,2
0.25,0.0027593089265055652,2
0.30000000000000004,0.0032294176156429633,2
0.35000000000000003,0.003674630179051401,2
0.4,0.004095889413334032,2
0.45,0.0044941067363211675,2
0.5,0.004870163161830372,2
0.55,0.005224910245421248,2
0.6000000000000001,0.0055591710019829805,2
0.65,0.005873740795969018,2
0.7000000000000001,0.006169388205070216,2
0.75,0.006446855858095354,2
0.8,0.00670686124780621,2
0.8500000000000001,0.006950097519433115,2
0.9,0.007177234235576447,2
0.9500000000000001,0.007388918118179403,2
1,0.007585773768238006,2
1.05,0.007768404363895395,2
1.1,0.007937392337549016,2
1.1500000000000001,0.008093300032581534,2
1.2000000000000002,0.008236670340308868,2
1.25,0.008368027317721892,2
1.3,0.008487876786581946,2
1.35,0.008596706914414278,2
1.4000000000000001,0.008694988777928184,2
1.4500000000000002,0.00878317690937735,2
1.5,0.00886170982635942,2
1.55,0.008931010545539459,2
1.6,0.008991487080768207,2
1.6500000000000001,0.009043532926052554,2
1.7000000000000002,0.009087527523822544,2
1.75,0.009123836718926604,2
1.8,0.009152813198774241,2
1.85,0.009174796920033496,2
1.9000000000000001,0.009190115522278814,2
1.9500000000000002,0.009199084728973543,2
2,0.009202008736160373,2
2.0500000000000003,0.009199180589222235,2
2.1,0.009190882548065793,2
2.15,0.009177386441069569,2
2.2,0.009158954008128864,2
2.25,0.009135837233120156,2
2.3000000000000003,0.009108278666098243,2
2.35,0.009076511735530552,2
2.4000000000000004,0.0090407610508641,2
2.45,0.009001242695712177,2
2.5,0.00895816451193951,2
2.5500000000000003,0.008911726374916553,2
2.6,0.008862120460205937,2
2.6500000000000004,0.008809531501936167,2
2.7,0.008754137043110684,2
2.75,0.008696107678092844,2
2.8000000000000003,0.008635607287500726,2
2.85,0.008572793265738624,2
2.9000000000000004,0.008507816741385753,2
2.95,0.008440822790656081,2
3,0.008371950644137151,2
3.0500000000000003,0.008301333887009597,2
3.1,0.00822910065294333,2
3.1500000000000004,0.008155373811860493,2
3.2,0.008080271151749918,2
3.25,0.008003905554712322,2
3.3000000000000003,0.00792638516741032,2
3.35,0.00784781356609221,2
3.4000000000000004,0.007768289916353585,2
3.45,0.007687909127796007,2
3.5,0.007606762003737359,2
3.5500000000000003,0.0075249353861239114,2
3.6,0.007442512295789815,2
3.6500000000000004,0.00735957206820539,2
3.7,0.007276190484851512,2
3.75,0.007192439900353297,2
3.8000000000000003,0.007108389365502414,2
3.85,0.007024104746293547,2
3.9000000000000004,0.006939648839096851,2
3.95,0.006855081482084597,2
4,0.006770459663026817,2
4.05,0.0066858376235672855,2
4.1000000000000005,0.0066012669600879524,2
4.15,0.006516796721266713,2
4.2,0.006432473502430287,2
4.25,0.006348341536801054,2
4.3,0.006264442783733638,2
4.3500000000000005,0.0061808170140343075,2
4.4,0.006097501892453449,2
4.45,0.0060145330574386535,2
4.5,0.005931944198233476,2
4.55,0.005849767129404247,2
4.6000000000000005,0.005768031862874999,2
4.65,0.005686766677548075,2
4.7,0.005605998186585767,2
4.75,0.005525751402426019,2
4.800000000000001,0.005446049799603089,2
4.8500000000000005,0.005366915375441899,2
4.9,0.005288368708692814,2
4.95,0.0052104290161715215,2
5,0.005133114207466786,2
5.050000000000001,0.005056440937776973,2
5.1000000000000005,0.00498042465893437,2
5.15,0.004905079668674599,2
5.2,0.0048304191582066655,2
5.25,0.00475645525813754,2
5.300000000000001,0.004683199082803498,2
5.3500000000000005,0.00461066077305893,2
5.4,0.0045388495375717364,2
5.45,0.004467773692672991,2
5.5,0.004397440700807095,2
5.550000000000001,0.004327857207627195,2
5.6000000000000005,0.004259029077779382,2
5.65,0.004190961429417755,2
5.7,0.004123658667491243,2
5.75,0.004057124515841772,2
5.800000000000001,0.003991362048152183,2
5.8500000000000005,0.003926373717781156,2
5.9,0.003862161386521201,2
5.95,0.003798726352314736,2
6,0.003736069375962146,2
6.050000000000001,0.003674190706854732,2
6.1000000000000005,0.0036130901077644,2
6.15,0.003552766878720973,2
6.2,0.0034932198800071,2
6.25,0.0034344475542997456,2
6.300000000000001,0.0033764479479864067,2
6.3500000000000005,0.003319218731683302,2
6.4,0.0032627572199819444,2
6.45,0.0032070603904496976,2
6.5,0.003152124901909115,2
6.550000000000001,0.0030979471120200896,2
6.6000000000000005,0.003044523094188106,2
6.65,0.0029918486538211384,2
6.7,0.002939919343957074,2
6.75,0.0028887304802828182,2
6.800000000000001,0.0028382771555655923,2
6.8500000000000005,0.002788554253516312,2
6.9,0.002739556462104273,2
6.95,0.002691278286341798,2
7,0.002643714060556901,2
7.050000000000001,0.002596857960171459,2
7.1000000000000005,0.002550704013001815,2
7.15,0.002505246110098236,2
7.2,0.0024604780161390886,2
7.25,0.002416393379395124,2
7.300000000000001,0.002372985741278763,2
7.3500000000000005,0.0023302485454927977,2
7.4,0.0022881751467924644,2
7.45,0.0022467588193744105,2
7.5,0.002205992764905641,2
7.550000000000001,0.0021658701202050936,2
7.6000000000000005,0.0021263839645901173,2
7.65,0.0020875273268997053,2
7.7,0.0020492931922059805,2
7.75,0.002011674508225031,2
7.800000000000001,0.001974664191437862,2
7.8500000000000005,0.0019382551329318678,2
7.9,0.0019024402039728827,2
7.95,0.0018672122613175753,2
8,0.0018325641522755915,2
8.05,0.001798488719530571,2
8.1,0.0017649788057288716,2
8.15,0.0017320272578445024,2
8.200000000000001,0.0016996269313285597,2
8.25,0.001667770694051111,2
8.3,0.0016364514300432585,2
8.35,0.001605662043046866,2
8.4,0.0015753954598791235,2
8.450000000000001,0.0015456446336189736,2
8.5,0.0015164025466221165,2
8.55,0.0014876622133711181,2
8.6,0.0014594166831669473,2
8.65,0.0014316590426680046,2
8.700000000000001,0.0014043824182825612,2
8.75,0.0013775799784202754,2
8.8,0.0013512449356083002,2
8.85,0.0013253705484772983,2
8.9,0.001299950123622485,2
8.950000000000001,0.0012749770173446763,2
9,0.001250444637276117,2
9.05,0.0012263464438957254,2
9.1,0.0012026759519382336,2
9.15,0.0011794267317015105,2
9.200000000000001,0.0011565924102562737,2
9.25,0.0011341666725621824,2
9.3,0.0011121432624942081,2
9.35,0.001090515983783044,2
9.4,0.00106927870087315,2
9.450000000000001,0.0010484253397019484,2
9.5,0.0010279498884035274,2
9.55,0.0010078463979401066,2
9.600000000000001,9.881089826644144e-4,2
9.65,9.68731820815986e-4,2
9.700000000000001,9.49709154954314e-4,2
9.75,9.310352923316697e-4,2
9.8,9.127046052082952e-4,2
9.850000000000001,8.947115311126051e-4,2
9.9,8.77050573048902e-4,2
9.950000000000001,8.597162996550501e-4,2
10,8.42703345312453e-4,2
10.05,8.260064102105833e-4,2
10.100000000000001,8.096202603682548e-4,2
10.15,7.935397276137231e-4,2
10.200000000000001,7.777597095256411e-4,2
10.25,7.622751693368143e-4,2
10.3,7.470811358026232e-4,2
10.350000000000001,7.321727030359243e-4,2
